freq,TL_
50,6.762268121061722
60,7.9349907025231845
70,8.989712828230543
80,9.944665452424697
90,10.815195909437431
100,11.613830291841014
110,12.350739332251193
120,13.034215349043322
130,13.671070192335598
140,14.26694773809049
150,14.826564748528225
160,15.3538960519343
170,15.852317531067534
180,16.324717338351796
190,16.773583128778807
200,17.201071079511564
210,17.609060968525366
220,17.999200491684682
230,18.372941201185963
240,18.73156786584402
250,19.07622262507939
260,19.407924990647633
270,19.727588512574158
280,20.03603474669302
290,20.33400502512591
300,20.62217042683208
310,20.90114026494713
320,21.171469345122897
330,21.43366420015858
340,21.688188467667935
350,21.935467546967683
360,22.175892646997113
370,22.409824317526244
380,22.63759554013953
390,22.859514442695982
400,23.07586669054912
410,23.286917599280766
420,23.4929140066891
430,23.69408593597737
440,23.890648077284432
450,24.08280111069622
460,24.27073289053192
470,24.454619507891255
480,24.634626246085844
490,24.810908441580057
500,24.983612261373832
510,25.152875406320042
520,25.31882774864078
530,25.481591910856046
540,25.641283792437054
550,25.79801304972031
560,25.951883533950017
570,26.102993691737396
580,26.251436931723987
590,26.397301960799965
600,26.54067309284884
610,26.681630532658232
620,26.820250637346284
630,26.956606157399122
640,27.090766459191038
650,27.222797730662506
660,27.352763171657504
670,27.48072317026824
680,27.60673546639979
690,27.73085530364643
700,27.853135570464715
710,27.973626931533122
720,28.09237795010305
730,28.209435202070363
740,28.32484338242893
750,28.43864540470686
760,28.550882493931645
770,28.661594273621983
780,28.770818847259445
790,28.878592874654263
800,28.984951643583287
810,29.089929137046326
820,29.193558096457668
830,29.295870081063512
840,29.396895523851786
850,29.496663784199445
860,29.59520319748262
870,29.692541121856838
880,29.788703982398502
890,29.883717312783897
900,29.977605794668307
910,30.07039329491556
920,30.162102900817104
930,30.252756953429024
940,30.342377079146374
950,30.43098421962511
960,30.5185986601542
970,30.605240056573017
980,30.690927460822408
990,30.775679345211728
1000,30.859513625478264
1010,30.94244768271039
1020,31.02449838420074
1030,31.105682103291446
1040,31.186014738269165
1050,31.265511730363855
1060,31.34418808090174
1070,31.422058367659645
1080,31.499136760464765
1090,31.575437036081198
1100,31.650972592421965
1110,31.72575646212271
1120,31.79980132551119
1130,31.87311952300435
1140,31.945723066963122
1150,32.017623653032956
1160,32.088832670996624
1170,32.15936121516417
1180,32.229220094323495
1190,32.298419841273514
1200,32.36697072196073
1210,32.43488274423887
1220,32.50216566626988
1230,32.568829004583854
1240,32.63488204181423
1250,32.700333834123846
1260,32.76519321833646
1270,32.82946881878759
1280,32.893169053907904
1290,32.95630214255132
1300,33.01887611007978
1310,33.08089879421564
1320,33.14237785067231
1330,33.20332075857304
1340,33.263734825667306
1350,33.32362719335374
1360,33.38300484151823
1370,33.4418745931951
1380,33.50024311905906
1390,33.55811694175529
1400,33.61550244007449
1410,33.67240585297951
1420,33.72883328348969
1430,33.784790702429135
1440,33.840283952044174
1450,33.89531874949577
1460,33.94990069023175
1470,34.00403525124383
1480,34.05772779421411
1490,34.110983568555426
1500,34.16380771434975
1510,34.21620526518881
1520,34.26818115092057
1530,34.31974020030542
1540,34.370887143585506
1550,34.421626614970506
1560,34.4719631550431
1570,34.521901213087176
1580,34.57144514934171
1590,34.62059923718303
1600,34.66936766523822
1610,34.717754539432136
1620,34.76576388497061
1630,34.813399648261964
1640,34.860665698779265
1650,34.90756583086535
1660,34.95410376548276
1670,35.00028315191042
1680,35.04610756938908
1690,35.09158052871721
1700,35.136705473799225
1710,35.18148578314747
1720,35.22592477133983
1730,35.27002569043426
1740,35.313791731341816
1750,35.35722602515959
1760,35.400331644464856
1770,35.44311160457176
1780,35.48556886475181
1790,35.52770632941923
1800,35.56952684928258
1810,35.61103322246353
1820,35.652228195583874
1830,35.693114464821946
1840,35.73369467693923
1850,35.773971430278316
1860,35.813947275732886
1870,35.85362471769076
1880,35.8930062149508
1890,35.93209418161449
1900,35.970890987952934
1910,36.009398961250064
1920,36.047620386622754
1930,36.08555750781854
1940,36.12321252799169
1950,36.16058761045807
1960,36.19768487942969
1970,36.23450642072933
1980,36.27105428248591
1990,36.30733047581116
2000,36.34333697545809
2010,36.37907572046177
2020,36.41454861476306
2030,36.44975752781554
2040,36.484704295176286
2050,36.519390719080846
2060,36.55381856900296
2070,36.58798958219921
2080,36.621905464239354
2090,36.65556788952236
2100,36.68897850177878
2110,36.72213891455971
2120,36.75505071171271
2130,36.78771544784502
2140,36.820134648774385
2150,36.85230981196784
2160,36.88424240696871
2170,36.915933875812144
2180,36.94738563342946
2190,36.9785990680416
2200,37.009575541541885
2210,37.04031638986838
2220,37.070822923366165
2230,37.10109642713962
2240,37.13113816139505
2250,37.160949361773795
2260,37.19053123967617
2270,37.21988498257628
2280,37.249011754328
2290,37.27791269546231
2300,37.3065889234761
2310,37.335041533112715
2320,37.36327159663437
2330,37.39128016408655
2340,37.419068263554664
2350,37.44663690141296
2360,37.47398706256601
2370,37.50111971068275
2380,37.52803578842338
2390,37.55473621765903
2400,37.58122189968458
2410,37.60749371542453
2420,37.633552525632155
2430,37.65939917108205
2440,37.68503447275612
2450,37.71045923202314
2460,37.735674230812016
2470,37.76068023177882
2480,37.78547797846761
2490,37.81006819546528
2500,37.834451588550344
2510,37.8586288448359
2520,37.88260063290667
2530,37.90636760295038
2540,37.929930386883335
2550,37.95328959847043
2560,37.976445833439556
2570,37.999399669590474
2580,38.02215166689824
2590,38.04470236761114
2600,38.06705229634333
2610,38.08920196016203
2620,38.11115184866949
2630,38.13290243407964
2640,38.15445417128945
2650,38.175807497945186
2660,38.19696283450334
2670,38.217920584286446
2680,38.23868113353375
2690,38.25924485144667
2700,38.27961209022912
2710,38.29978318512283
2720,38.31975845443728
2730,38.33953819957477
2740,38.35912270505017
2750,38.37851223850562
2760,38.39770705072003
2770,38.41670737561341
2780,38.43551343024609
2790,38.45412541481262
2800,38.4725435126305
2810,38.490767890123685
2820,38.50879869680072
2830,38.5266360652276
2840,38.5442801109953
2850,38.561730932681805
2860,38.57898861180874
2870,38.59605321279252
2880,38.612924782889905
2890,38.62960335213797
2900,38.64608893328833
2910,38.66238152173572
2920,38.67848109544068
2930,38.69438761484637
2940,38.71010102278945
2950,38.725621244404834
2960,38.74094818702438
2970,38.75608174006927
2980,38.7710217749361
2990,38.7857681448765
3000,38.8003206848702
3010,38.81467921149149
3020,38.828843522768786
3030,38.84281339803738
3040,38.85658859778508
3050,38.87016886349069
3060,38.883553917455195
3070,38.89674346262537
3080,38.90973718240986
3090,38.92253474048737
3100,38.93513578060694
3110,38.94753992637999
3120,38.959746781064105
3130,38.97175592733823
3140,38.98356692706909
3150,38.99517932106874
3160,39.00659262884283
3170,39.01780634832954
3180,39.028819955628805
3190,39.03963290472169
3200,39.05024462717953
3210,39.060654531862674
3220,39.07086200460852
3230,39.08086640790847
3240,39.09066708057362
3250,39.10026333738877
3260,39.10965446875442
3270,39.11883974031653
3280,39.12781839258344
3290,39.136589640529856
3300,39.145152673187276
3310,39.153506653220575
3320,39.161650716490286
3330,39.169583971600105
3340,39.17730549942921
3350,39.18481435264884
3360,39.192109555222714
3370,39.199190101890665
3380,39.206054957635075
3390,39.212703057129346
3400,39.21913330416801
3410,39.225344571077756
3420,39.23133569810868
3430,39.23710549280519
3440,39.24265272935579
3450,39.247976147921
3460,39.253074453938694
3470,39.25794631740597
3480,39.262590372136806
3490,39.267005214994526
3500,39.271189405098234
3510,39.275141463002235
3520,39.278859869847395
3530,39.28234306648345
3540,39.28558945256115
3550,39.28859738559304
3560,39.29136517998179
3570,39.293891106014655
3580,39.29617338882289
3590,39.29821020730469
3600,39.29999969301012
3610,39.30153992898672
3620,39.302828948584015
3630,39.303864734215274
3640,39.30464521607494
3650,39.30516827080967
3660,39.30543172014125
3670,39.30543332943923
3680,39.30517080624122
3690,39.30464179871865
3700,39.30384389408553
3710,39.30277461694794
3720,39.301431427591396
3730,39.299811720203664
3740,39.29791282102989
3750,39.29573198645723
3760,39.29326640102562
3770,39.29051317536151
3780,39.2874693440309
3790,39.28413186330799
3800,39.28049760885556
3810,39.27656337331289
3820,39.27232586378682
3830,39.26778169924142
3840,39.262927407781255
3850,39.25775942382326
3860,39.25227408515154
3870,39.24646762984953
3880,39.240336193103346
3890,39.23387580386966
3900,39.22708238140161
3910,39.21995173162516
3920,39.21247954335831
3930,39.20466138436507
3940,39.196492697235286
3950,39.18796879508144
3960,39.179084857042255
3970,39.16983592358295
3980,39.160216891581015
3990,39.15022250918562
4000,39.13984737043816
4010,39.12908590964071
4020,39.11793239545775
4030,39.10638092473638
4040,39.09442541602846
4050,39.08205960279752
4060,39.069277026291786
4070,39.05607102806356
4080,39.04243474211374
4090,39.02836108663876
4100,39.013842755355526
4110,38.99887220837847
4120,38.98344166262048
4130,38.967543081687744
4140,38.95116816523627
4150,38.934308337755255
4160,38.91695473673992
4170,38.899098200213615
4180,38.88072925355576
4190,38.86183809558886
4200,38.84241458387401
4210,38.8224482191604
4220,38.80192812892967
4230,38.78084304997136
4240,38.75918130992018
4250,38.73693080768005
4260,38.714078992653576
4270,38.690612842688445
4280,38.66651884064454
4290,38.64178294947716
4300,38.616390585722336
4310,38.59032659125971
4320,38.56357520321741
4330,38.53612002187021
4340,38.50794397636897
4350,38.479029288123016
4360,38.44935743164076
4370,38.41890909261411
4380,38.387664123011255
4390,38.355601492918666
4400,38.322699238846525
4410,38.28893440818247
4420,38.2542829994452
4430,38.21871989795252
4440,38.18221880647658
4450,38.14475217041246
4460,38.10629109693325
4470,38.0668052675453
4480,38.02626284339013
4490,37.98463036256336
4500,37.94187262863452
4510,37.89795258945379
4520,37.85283120521997
4530,37.80646730465695
4540,37.7588174280004
4550,37.70983565533066
4560,37.65947341859664
4570,37.60767929545723
4580,37.554398782814275
4590,37.49957404762097
4600,37.44314365221372
4610,37.385042251026704
4620,37.32520025509773
4630,37.263543460250006
4640,37.199992634224245
4650,37.134463057324126
4660,37.06686401030686
4670,36.997098202278174
4680,36.92506113021163
4690,36.85064036037658
4700,36.773714720392086
4710,36.694153388785786
4720,36.611814866775816
4730,36.52654581452414
4740,36.4381797309905
4750,36.34653545342295
4760,36.25141544824725
4770,36.152603860855635
4780,36.049864286723775
4790,35.94293722087515
4800,35.8315371371219
4810,35.715349143265456
4820,35.59402515450849
4830,35.467179526453826
4840,35.33438409430652
4850,35.19516258153142
4860,35.048984378281226
4870,34.895257762741316
4880,34.73332277307684
4890,34.56244417753554
4900,34.38180540825154
4910,34.19050503997408
4920,33.98755860372753
4930,33.77191051513847
4940,33.542464106953574
4950,33.298142643129
4960,33.038001022310866
4970,32.76141565473069
4980,32.46838415671366
4990,32.15995466678115
5000,31.838753212391747
5010,31.50946262162439
5020,31.178952299890618
5030,30.855710614413002
5040,30.54850367764211
5050,30.264726603361524
5060,30.0092199907822
5070,29.784004889323047
5080,29.588782896649548
5090,29.421740614932126
5100,29.2802885488706
5110,29.16158540679771
5120,29.062850232824736
5130,28.9815199124447
5140,28.91531080184473
5150,28.86222735229627
5160,28.820544580213255
5170,28.78877970226302
5180,28.765661052819183
5190,28.750098246387772
5200,28.741155279675162
5210,28.73802709065292
5220,28.740019518117002
5230,28.74653235383009
5240,28.757045093987024
5250,28.771104992674204
5260,28.788317056067235
5270,28.808335630956257
5280,28.830857395721907
5290,28.855615391502752
5300,28.88237403793513
5310,28.910924896390185
5320,28.94108307843363
5330,28.972684189361143
5340,29.005581719240553
5350,29.03964480926481
5360,29.074756333716053
5370,29.11081124816082
5380,29.14771516284324
5390,29.18538310715689
5400,29.223738456680223
5410,29.262711998954405
5420,29.302241117999262
5430,29.342269080662703
5440,29.382744410654446
5450,29.423620338188442
5460,29.464854314997094
5470,29.506407586083476
5480,29.54824481071956
5490,29.590333726383196
5500,29.632644850190346
5510,29.675151213053745
5520,29.717828122762377
5530,29.760652952121916
5540,29.80360494952672
5550,29.846665069060645
5560,29.889815818005538
5570,29.93304111968704
5580,29.97632618997215
5590,30.019657425868267
5600,30.063022304915048
5610,30.106409294189923
5620,30.14980776789512
5630,30.193207932637588
5640,30.236600759575186
5650,30.27997792274131
5660,30.323331742912515
5670,30.36665513646339
5680,30.409941568713524
5690,30.453185011326987
5700,30.496379903370823
5710,30.53952111568154
5720,30.58260391823335
5730,30.625623950206375
5740,30.668577192536905
5750,30.711459942694376
5760,30.754268791495996
5770,30.79700060177412
5780,30.83965248873256
5790,30.8822218018439
5800,30.924706108150218
5810,30.96710317685169
5820,31.00941096507039
5830,31.051627604690182
5840,31.093751390183833
5850,31.13578076734462
5860,31.177714322849653
5870,31.219550774586885
5880,31.261288962677174
5890,31.302927841160255
5900,31.344466470294734
5910,31.385904009165042
5920,31.42723970943606
5930,31.46847290870674
5940,31.509603024953513
5950,31.550629551099863
5960,31.591552050002694
5970,31.632370149788386
5980,31.67308353948861
5990,31.713691964976256
6000,31.754195225191037
6010,31.794593168568323
6020,31.834885689757165
6030,31.87507272652143
6040,31.915154256851736
6050,31.955130296267065
6060,31.995000895283834
6070,32.03476613705729
6080,32.0744261351644
6090,32.11398103153766
6100,32.1534309945156
6110,32.192776217044916
6120,32.232016914913835
6130,32.271153325272984
6140,32.310185705020565
6150,32.3491143294565
6160,32.3879394909531
6170,32.42666149772176
6180,32.465280672637256
6190,32.503797352187064
6200,32.54221188539604
6210,32.58052463291179
6220,32.61873596607087
6230,32.65684626608723
6240,32.69485592321833
6250,32.73276533604443
6260,32.77057491075726
6270,32.80828506050197
6280,32.84589620475748
6290,32.88340876875429
6300,32.920823182980456
6310,32.95813988240185
6320,32.99535930651022
6330,33.03248189833788
6340,33.06950810429796
6350,33.10643837372771
6360,33.14327315851309
6370,33.18001291272979
6380,33.21665809233602
6390,33.25320915482292
6400,33.28966655894525
6410,33.32603076444076
6420,33.362302231771665
6430,33.39848142188081
6440,33.43456879597668
6450,33.470564815292946
6460,33.5064699409172
6470,33.542284633588956
6480,33.578009353547166
6490,33.61364456026129
6500,33.64919071249799
6510,33.684648267938904
6520,33.72001768318935
6530,33.755299413599225
6540,33.79049391316202
6550,33.825601634405736
6560,33.86062302828517
6570,33.895558556337384
6580,33.93040862935368
6590,33.96517372977669
6600,33.99985428914551
6610,34.034450749264714
6620,34.06896354989049
6630,34.10339312867065
6640,34.137739921089
6650,34.17200436041413
6660,34.20618687765049
6670,34.240287901505766
6680,34.27430785832738
6690,34.308247172093886
6700,34.342106264368844
6710,34.37588555427094
6720,34.409585458450465
6730,34.443206391064905
6740,34.47674876375787
6750,34.51021298564039
6760,34.543599463274774
6770,34.576908600660445
6780,34.61014079922205
6790,34.64329645779938
6800,34.676375972639185
6810,34.70937973738914
6820,34.742308143095755
6830,34.77516157818184
6840,34.807940428486866
6850,34.840645077221765
6860,34.873275904995275
6870,34.90583328980283
6880,34.93831760704961
6890,34.97072922953129
6900,35.003068527438344
6910,35.03533586839638
6920,35.06753161743469
6930,35.09965613701239
6940,35.13170978702401
6950,35.16369292480854
6960,35.19560590515943
6970,35.227449080335234
6980,35.25922280007077
6990,35.29092741158881
7000,35.32256325961257
7010,35.35413068637826
7020,35.38563003164782
7030,35.41706163272317
7040,35.44842582445995
7050,35.47972293927854
7060,35.510953307192
7070,35.542117255796754
7080,35.57321511030952
7090,35.60424719357381
7100,35.63521382607626
7110,35.66611532596204
7120,35.69695200905152
7130,35.72772418885708
7140,35.75843217659798
7150,35.78907628121744
7160,35.81965680939972
7170,35.850174065586955
7180,35.88062835199656
7190,35.91101996859555
7200,35.94134921324531
7210,35.971616381562015
7220,36.00182176702341
7230,36.031965660976184
7240,36.06204835258517
7250,36.09207012899548
7260,36.12203127519887
7270,36.151932074130194
7280,36.18177280667146
7290,36.21155375164857
7300,36.24127518590326
7310,36.270937384158366
7320,36.300540619306425
7330,36.33008516216195
7340,36.35957128160182
7350,36.388999244606076
7360,36.418369316091855
7370,36.44768175923884
7380,36.4769368352558
7390,36.50613480347894
7400,36.535275921387026
7410,36.56436044461565
7420,36.59338862697444
7430,36.62236072046105
7440,36.651276975272374
7450,36.68013763983418
7460,36.70894296080328
7470,36.7376931830828
7480,36.766388549848074
7490,36.79502930255304
7500,36.82361568093255
7510,36.85214792309234
7520,36.880626265376314
7530,36.90905094253024
7540,36.937422187638674
7550,36.96574023215858
7560,36.99400530592146
7570,37.022217637175864
7580,37.050377452570885
7590,37.07848497718527
7600,37.10654043454167
7610,37.13454404661519
7620,37.16249603385083
7630,37.190396615176475
7640,37.21824600801557
7650,37.24604442830038
7660,37.27379209048936
7670,37.30148920757115
7680,37.32913599108673
7690,37.35673265113701
7700,37.38427939640015
7710,37.41177643418463
7720,37.439223970230124
7730,37.46662220912846
7740,37.49397135394314
7750,37.5212716063668
7760,37.548523166921875
7770,37.575726237909834
7780,37.60288100691167
7790,37.62998768052148
7800,37.657046450433725
7810,37.68405751047072
7820,37.71102105314726
7830,37.73793726972666
7840,37.76480635019573
7850,37.79162848331396
7860,37.81840385659304
7870,37.84513265632454
7880,37.871815067579476
7890,37.89845127422798
7900,37.92504145894469
7910,37.95158580322342
7920,37.9780844873863
7930,38.0045376905865
7940,38.030945590863865
7950,38.05730836498007
7960,38.08362618876545
7970,38.10989923679357
7980,38.13612768255854
7990,38.16231169845233
8000,38.18845145576897
8010,38.214547124723396
8020,38.24059887445346
8030,38.266606873039855
8040,38.29257128747743
8050,38.31849228375316
8060,38.344370026788404
8070,38.37020468048496
8080,38.39599640778587
8090,38.42174537036727
8100,38.447451729284055
8110,38.47311564434141
8120,38.4987372744207
8130,38.52431677743527
8140,38.549854310298656
8150,38.575350029003545
8160,38.60080408856312
8170,38.62621664305257
8180,38.65158784561014
8190,38.67691784846262
8200,38.702206802891936
8210,38.727454859324894
8220,38.75266216734972
8230,38.77782887443921
8240,38.802955129848065
8250,38.828041079403505
8260,38.853086869445846
8270,38.87809264485093
8280,38.903058549814986
8290,38.92798472765377
